# Flux scaled to 10m distance
Neutrino_Energy_MeV,Neutrino_Flux_per_cm2_s_MeV
2.747,1.30E+10
3.034,3.80E+10
3.284,5.53E+10
3.534,6.68E+10
3.784,7.20E+10
4.034,7.53E+10
4.284,7.38E+10
4.534,7.05E+10
4.784,6.63E+10
5.034,6.00E+10
5.284,5.23E+10
5.534,4.48E+10
5.784,3.95E+10
6.034,3.40E+10
6.284,2.85E+10
6.534,2.31E+10
6.784,1.78E+10
7.034,1.32E+10
7.284,1.01E+10
7.534,7.43E+09
7.784,5.10E+09
8.034,3.43E+09
8.284,2.29E+09
8.534,1.53E+09
8.784,8.98E+08
10.847,2.73E+07